e:\ytison\documents\recherche\kalpha\mg-ionmtp-2015\bisb-electrolyte\x-ray005 400um - fg  on\sb-electrolyte-1\avg\sb-electrodemouilleev2.vms
C1s Scan
	Characteristic Energy eV	1486.68	Acquisition Time s	2.5
KE_C1s Scan	BE_C1s Scan	CPS_C1s Scan	C 1s_1_C1s Scan	C 1s_2_C1s Scan	C 1s_3_C1s Scan	C 1s_4_C1s Scan	C 1s_5_C1s Scan	C1s_6_C1s Scan	C1s_7_C1s Scan	Background_C1s Scan	Envelope_C1s Scan
1188.6	298.08	865.44	865.44	865.44	865.44	865.44	865.44	865.44	865.44	865.44	865.44
1188.7	297.98	859.908	859.908	859.908	859.908	859.908	859.908	859.908	859.908	859.908	859.908
1188.8	297.88	898.676	898.676	898.676	898.676	898.676	898.676	898.676	898.676	898.676	898.676
1188.9	297.78	874.1	874.1	874.1	874.1	874.1	874.1	874.1	874.1	874.1	874.1
1189	297.68	871.148	871.148	871.148	871.148	871.148	871.148	871.148	871.148	871.148	871.148
1189.1	297.58	879.488	879.488	879.488	879.488	879.488	879.488	879.488	879.488	879.488	879.488
1189.2	297.48	859.076	859.076	859.076	859.076	859.076	859.076	859.076	859.076	859.076	859.076
1189.3	297.38	850.376	850.376	850.376	850.376	850.376	850.376	850.376	850.376	850.376	850.376
1189.4	297.28	864.168	864.168	864.168	864.168	864.168	864.168	864.168	864.168	864.168	864.168
1189.5	297.18	841.068	841.068	841.068	841.068	841.068	841.068	841.068	841.068	841.068	841.068
1189.6	297.08	841.004	841.004	841.004	841.004	841.004	841.004	841.004	841.004	841.004	841.004
1189.7	296.98	836.328	836.328	836.328	836.328	836.328	836.328	836.328	836.328	836.328	836.328
1189.8	296.88	854.58	854.58	854.58	854.58	854.58	854.58	854.58	854.58	854.58	854.58
1189.9	296.78	863.38	863.38	863.38	863.38	863.38	863.38	863.38	863.38	863.38	863.38
1190	296.68	842.628	842.628	842.628	842.628	842.628	842.628	842.628	842.628	842.628	842.628
1190.1	296.58	831.784	831.784	831.784	831.784	831.784	831.784	831.784	831.784	831.784	831.784
1190.2	296.48	827.316	827.316	827.316	827.316	827.316	827.316	827.316	827.316	827.316	827.316
1190.3	296.38	837.244	837.244	837.244	837.244	837.244	837.244	837.244	837.244	837.244	837.244
1190.4	296.28	842.04	842.04	842.04	842.04	842.04	842.04	842.04	842.04	842.04	842.04
1190.5	296.18	840.084	840.084	840.084	840.084	840.084	840.084	840.084	840.084	840.084	840.084
1190.6	296.08	813.304	813.304	813.304	813.304	813.304	813.304	813.304	813.304	813.304	813.304
1190.7	295.98	823.528	823.528	823.528	823.528	823.528	823.528	823.528	823.528	823.528	823.528
1190.8	295.88	843.076	843.076	843.076	843.076	843.076	843.076	843.076	843.076	843.076	843.076
1190.9	295.78	825.48	825.48	825.48	825.48	825.48	825.48	825.48	825.48	825.48	825.48
1191	295.68	841.444	841.444	841.444	841.444	841.444	841.444	841.444	841.444	841.444	841.444
1191.1	295.58	834.968	834.968	834.968	834.968	834.968	834.968	834.968	834.968	834.968	834.968
1191.2	295.48	833.508	833.508	833.508	833.508	833.508	833.508	833.508	833.508	833.508	833.508
1191.3	295.38	846.404	846.404	846.404	846.404	846.404	846.404	846.404	846.404	846.404	846.404
1191.4	295.28	847.336	847.336	847.336	847.336	847.336	847.336	847.336	847.336	847.336	847.336
1191.5	295.18	860.756	860.756	860.756	860.756	860.756	860.756	860.756	860.756	860.756	860.756
1191.6	295.08	851.784	851.784	851.784	851.784	851.784	851.784	851.784	851.784	851.784	851.784
1191.7	294.98	861.956	861.956	861.956	861.956	861.956	861.956	861.956	861.956	861.956	861.956
1191.8	294.88	881.208	881.208	881.208	881.208	881.208	881.208	881.208	881.208	881.208	881.208
1191.9	294.78	859.256	859.256	859.256	859.256	859.256	859.256	859.256	859.256	859.256	859.256
1192	294.68	887.964	887.964	887.964	887.964	887.964	887.964	887.964	887.964	887.964	887.964
1192.1	294.58	900.996	900.996	900.996	900.997	900.996	900.996	900.996	900.996	900.996	900.997
1192.2	294.48	908.7	908.7	908.7	908.701	908.7	908.7	908.7	908.7	908.7	908.701
1192.3	294.38	892.12	892.12	892.12	892.123	892.12	892.12	892.12	892.12	892.12	892.123
1192.4	294.28	910.092	910.092	910.092	910.097	910.092	910.092	910.092	910.092	910.092	910.097
1192.5	294.18	906.116	906.116	906.116	906.125	906.116	906.116	906.116	906.116	906.116	906.125
1192.6	294.08	885.752	885.752	885.752	885.769	885.752	885.752	885.752	885.752	885.752	885.769
1192.7	293.98	883.936	883.936	883.936	883.966	883.936	883.936	883.936	883.936	883.936	883.966
1192.8	293.88	893.848	893.848	893.848	893.902	893.848	893.848	893.848	893.848	893.848	893.902
1192.9	293.78	901.824	901.824	901.824	901.918	901.824	901.824	901.824	901.824	901.824	901.918
1193	293.68	932.14	932.14	932.14	932.303	932.14	932.14	932.14	932.14	932.14	932.303
1193.1	293.58	917.8	917.8	917.8	918.078	917.8	917.8	917.8	917.8	917.8	918.078
1193.2	293.48	964.512	942.937	942.937	943.404	942.937	942.937	942.937	942.937	942.937	943.404
1193.3	293.38	946.688	942.926	942.926	943.7	942.926	942.926	942.926	942.926	942.926	943.7
1193.4	293.28	1005.14	942.744	942.744	944.001	942.744	942.744	942.744	942.744	942.744	944.001
1193.5	293.18	992.208	942.599	942.599	944.626	942.599	942.599	942.599	942.599	942.599	944.626
1193.6	293.08	983.432	942.48	942.48	945.68	942.48	942.48	942.48	942.48	942.48	945.68
1193.7	292.98	993.752	942.33	942.33	947.333	942.33	942.33	942.33	942.33	942.33	947.333
1193.8	292.88	1004.28	942.148	942.148	949.834	942.148	942.148	942.148	942.148	942.148	949.834
1193.9	292.78	1022.3	941.914	941.914	953.557	941.914	941.914	941.914	941.914	941.914	953.557
1194	292.68	1007.63	941.721	941.721	959.111	941.721	941.721	941.721	941.721	941.721	959.111
1194.1	292.58	1032.46	941.456	941.456	966.993	941.456	941.456	941.456	941.456	941.456	966.994
1194.2	292.48	1035.7	941.18	941.18	978.24	941.18	941.18	941.18	941.18	941.18	978.24
1194.3	292.38	1038.51	940.895	940.895	993.697	940.895	940.895	940.895	940.895	940.895	993.697
1194.4	292.28	1069.56	940.519	940.519	1014.87	940.519	940.519	940.519	940.519	940.519	1014.87
1194.5	292.18	1111.98	940.017	940.017	1042.89	940.017	940.017	940.017	940.017	940.017	1042.89
1194.6	292.08	1188.7	939.289	939.289	1079.58	939.289	939.289	939.289	939.289	939.289	1079.58
1194.7	291.98	1214.17	938.484	938.484	1126.72	938.484	938.484	938.484	938.485	938.484	1126.72
1194.8	291.88	1250.69	937.571	937.571	1185.97	937.571	937.571	937.571	937.572	937.571	1185.97
1194.9	291.78	1318.52	936.456	936.456	1259.11	936.456	936.456	936.456	936.458	936.456	1259.12
1195	291.68	1356.06	935.228	935.228	1346.73	935.228	935.228	935.228	935.232	935.228	1346.73
1195.1	291.58	1413.16	933.829	933.829	1450.03	933.829	933.829	933.829	933.837	933.829	1450.03
1195.2	291.48	1550.21	932.025	932.025	1567.1	932.025	932.025	932.025	932.04	932.025	1567.11
1195.3	291.38	1623.68	930	930	1696.69	930	930	930	930.028	930	1696.72
1195.4	291.28	1762.46	927.564	927.564	1834.36	927.564	927.564	927.564	927.613	927.564	1834.41
1195.5	291.18	1886.7	924.757	924.757	1974.79	924.757	924.757	924.757	924.841	924.757	1974.88
1195.6	291.08	2067.03	921.414	921.414	2110.47	921.414	921.414	921.414	921.556	921.414	2110.61
1195.7	290.98	2162.57	917.781	917.781	2233.66	917.781	917.781	917.781	918.021	917.781	2233.9
1195.8	290.88	2298.72	913.739	913.739	2334.63	913.739	913.74	913.739	914.133	913.739	2335.02
1195.9	290.78	2392.31	909.412	909.412	2406.88	909.412	909.412	909.412	910.052	909.412	2407.52
1196	290.68	2469.6	904.846	904.846	2442.35	904.846	904.846	904.846	905.87	904.846	2443.38
1196.1	290.58	2454.32	900.311	900.311	2439.63	900.311	900.312	900.311	901.921	900.311	2441.24
1196.2	290.48	2417.63	895.87	895.87	2397.47	895.87	895.873	895.87	898.376	895.87	2399.98
1196.3	290.38	2252.54	891.899	891.899	2319.96	891.899	891.905	891.899	895.724	891.899	2323.79
1196.4	290.28	2192.58	888.092	888.092	2212.98	888.092	888.103	888.092	893.874	888.092	2218.78
1196.5	290.18	2029.97	884.75	884.75	2084.23	884.75	884.77	884.75	893.33	884.75	2092.83
1196.6	290.08	1898.64	881.783	881.783	1942.97	881.783	881.818	881.783	894.351	881.783	1955.57
1196.7	289.98	1746.4	879.252	879.252	1797.22	879.252	879.314	879.252	897.377	879.252	1815.4
1196.8	289.88	1701.67	876.845	876.845	1654.15	876.845	876.951	876.845	902.579	876.845	1679.98
1196.9	289.78	1510.8	874.99	874.99	1520.02	874.99	875.172	874.99	911.024	874.99	1556.24
1197	289.68	1435.06	873.351	873.351	1398.26	873.351	873.657	873.351	922.931	873.351	1448.15
1197.1	289.58	1342.15	871.979	871.979	1291.22	871.979	872.488	871.979	939.318	871.979	1359.07
1197.2	289.48	1336.17	870.62	870.621	1199.67	870.62	871.454	870.62	960.44	870.62	1290.33
1197.3	289.38	1247.15	869.518	869.52	1123.1	869.518	870.861	869.518	987.552	869.518	1242.48
1197.4	289.28	1263.84	868.364	868.369	1060.87	868.364	870.502	868.364	1020.76	868.364	1215.41
1197.5	289.18	1232.94	867.297	867.306	1010.82	867.298	870.634	867.297	1060.71	867.297	1207.58
1197.6	289.08	1312.57	865.994	866.013	971.509	865.995	871.16	865.994	1107.11	865.994	1217.81
1197.7	288.98	1236.13	864.911	864.948	941.176	864.913	872.752	864.911	1159.8	864.911	1243.95
1197.8	288.88	1349.48	863.492	863.564	917.811	863.496	875.258	863.492	1217.27	863.492	1283.43
1197.9	288.78	1358.72	862.043	862.18	900.156	862.05	879.408	862.043	1277.72	862.043	1333.34
1198	288.68	1394.92	860.483	860.739	886.788	860.497	885.736	860.483	1338.49	860.483	1390.32
1198.1	288.58	1404.86	858.89	859.358	876.824	858.916	895.1	858.89	1396.35	858.89	1450.99
1198.2	288.48	1459.54	857.132	857.971	869.131	857.18	908.177	857.132	1447.33	857.132	1511.26
1198.3	288.38	1547.09	855.113	856.587	863.063	855.199	926.164	855.113	1487.62	855.113	1568.18
1198.4	288.28	1566.92	853.029	855.572	858.199	853.184	950.161	853.029	1514.23	853.029	1619.22
1198.5	288.18	1646.1	850.708	855.012	854.029	850.979	981.713	850.708	1524.18	850.708	1663.08
1198.6	288.08	1683.56	848.271	855.413	850.371	848.737	1021.88	848.271	1517.28	848.271	1700.6
1198.7	287.98	1741.04	845.658	857.282	846.965	846.454	1072.09	845.658	1492.79	845.658	1732.96
1198.8	287.88	1766.76	842.962	861.509	843.766	844.291	1133.28	842.962	1453.71	842.962	1764.71
1198.9	287.78	1816.49	840.113	869.126	840.597	842.318	1205.7	840.113	1402.22	840.113	1799.51
1199	287.68	1858.36	837.133	881.622	837.423	840.718	1289.38	837.133	1342.35	837.133	1842.96
1199.1	287.58	1833.51	834.216	901.084	834.386	839.976	1382.74	834.216	1277.96	834.216	1899.28
1199.2	287.48	1969.34	830.894	929.377	830.993	840.005	1483.34	830.894	1212.16	830.894	1972.3
1199.3	287.38	2044.78	827.341	969.434	827.398	841.522	1587.08	827.341	1148.06	827.341	2064.13
1199.4	287.28	2139.85	823.5	1024.26	823.531	845.309	1688.95	823.5	1088.04	823.5	2176.09
1199.5	287.18	2254.8	819.311	1096.93	819.328	852.223	1782.8	819.311	1033.23	819.311	2307.27
1199.6	287.08	2350.59	814.829	1190.34	814.839	864.023	1862.2	814.829	984.805	814.829	2456.9
1199.7	286.98	2535.72	809.793	1306.2	809.798	881.948	1920.32	809.793	942.398	809.793	2621.5
1199.8	286.88	2706.7	804.241	1444.97	804.243	908.784	1952.9	804.241	905.981	804.241	2799.91
1199.9	286.78	2915.7	798.061	1604.6	798.062	947.057	1955.18	798.061	874.843	798.061	2987.51
1200	286.68	3176.83	791.099	1779.96	791.099	1000.29	1927.94	791.099	848.073	791.099	3182.96
1200.1	286.58	3405.79	783.446	1962.57	783.447	1072.86	1871.49	783.446	825.124	783.446	3381.71
1200.2	286.48	3603.01	775.194	2140.56	775.194	1168.84	1791.14	775.194	805.136	775.194	3580.09
1200.3	286.38	3847.8	766.201	2299.19	766.201	1294.21	1691.82	766.201	787.46	766.201	3774.09
1200.4	286.28	4131.76	756.351	2422.99	756.351	1451.88	1580.08	756.352	771.175	756.351	3957.07
1200.5	286.18	4237.92	746.161	2498.72	746.161	1648.65	1462.84	746.163	756.365	746.161	4128.1
1200.6	286.08	4455.92	735.305	2516.53	735.303	1885.15	1345.57	735.309	742.216	735.303	4283.56
1200.7	285.98	4613.68	723.963	2473.27	723.952	2163.57	1232.85	723.965	728.565	723.952	4426.42
1200.8	285.88	4677	712.445	2372.85	712.383	2481.42	1128.72	712.413	715.42	712.383	4561.35
1200.9	285.78	4820.2	700.671	2224.67	700.36	2832.1	1034.44	700.428	702.324	700.36	4692.82
1201	285.68	4883	689.51	2043.16	688.118	3205.57	951.513	688.265	689.376	688.118	4826.81
1201.1	285.58	4938.4	681.251	1843.77	675.679	3585.85	879.723	675.986	676.468	675.679	4964.66
1201.2	285.48	5081.52	682.74	1640.71	662.784	3952.13	818.166	663.408	663.275	662.784	5106.5
1201.3	285.38	5199.84	713.468	1445.84	649.505	4282.68	766.011	650.73	649.805	649.505	5261.01
1201.4	285.28	5318.48	819.22	1267.5	635.84	4551.84	721.655	638.165	636.02	635.84	5455.2
1201.5	285.18	5711.8	1090.43	1109.67	620.984	4738.52	683.38	625.249	621.091	620.984	5763.43
1201.6	285.08	6254.76	1673.53	973.677	604.495	4825.38	649.053	612.061	604.557	604.495	6315.78
1201.7	284.98	7211.8	2735.38	857.756	585.157	4800.96	616.569	598.156	585.193	585.157	7268.22
1201.8	284.88	8739.64	4336.44	758.182	561.29	4667.23	583.07	582.88	561.311	561.29	8682.66
1201.9	284.78	10215.9	6220.76	672.23	533.034	4428.87	547.917	567.65	533.045	533.034	10305.3
1202	284.68	11479	7709.8	597.368	500.997	4108.81	511.025	554.539	501.003	500.997	11477.6
1202.1	284.58	11488.6	8033.74	534.204	468.839	3728.86	475.48	548.636	468.842	468.839	11445.6
1202.2	284.48	10016.7	6989.06	484.342	440.895	3319.71	445.245	555.314	440.896	440.895	10030.1
1202.3	284.38	7778.28	5144.56	447.725	419.42	2905.48	422.214	576.958	419.421	419.42	7819.26
1202.4	284.28	5654.08	3300.84	422.177	404.099	2505.99	405.878	611.827	404.099	404.099	5630.32
1202.5	284.18	3975.51	1931.32	404.966	393.646	2134.68	394.757	655.027	393.647	393.646	3946.16
1202.6	284.08	2872.69	1103.46	393.341	386.391	1801.5	387.076	699.24	386.391	386.391	2839.05
1202.7	283.98	2196.76	677.606	385.276	381.092	1509.17	381.509	736.175	381.092	381.092	2165.36
1202.8	283.88	1774.32	486.383	379.484	377.014	1261.52	377.263	758.188	377.015	377.014	1754.78
1202.9	283.78	1409.15	410.057	375.423	373.994	1054.94	374.141	760.349	373.994	373.994	1478.93
1203	283.68	1154.26	382.352	372.521	371.71	887.694	371.795	741.172	371.71	371.71	1268.69
1203.1	283.58	1014.3	372.64	370.28	369.829	754.387	369.878	703.631	369.829	369.829	1091.5
1203.2	283.48	890.424	368.97	368.552	368.306	650.295	368.333	653.935	368.306	368.306	936.862
1203.3	283.38	791.22	367.208	367.2	367.068	570.886	367.083	599.236	367.068	367.068	803.341
1203.4	283.28	716.04	366.073	366.116	366.047	510.776	366.055	545.886	366.047	366.047	690.72
1203.5	283.18	678.196	365.137	365.169	365.133	466.714	365.137	498.3	365.133	365.133	599.926
1203.6	283.08	605.76	364.429	364.447	364.429	434.428	364.431	458.972	364.429	364.429	528.993
1203.7	282.98	575.236	363.812	363.821	363.812	411.474	363.813	428.371	363.812	363.812	476.044
1203.8	282.88	555.96	363.249	363.254	363.249	395.161	363.25	405.706	363.249	363.249	437.623
1203.9	282.78	556.912	362.682	362.685	362.682	383.748	362.683	389.607	362.682	362.682	410.674
1204	282.68	499.144	362.283	362.284	362.283	375.995	362.283	378.764	362.283	362.283	392.477
1204.1	282.58	496.584	361.89	361.89	361.89	370.661	361.89	371.633	361.89	361.89	380.404
1204.2	282.48	482.86	361.536	361.536	361.536	367.09	361.536	367.101	361.536	361.536	372.655
1204.3	282.38	456.44	361.258	361.258	361.258	364.703	361.258	364.338	361.258	361.258	367.783
1204.4	282.28	438.296	361.033	361.033	361.033	363.153	361.033	362.682	361.033	361.033	364.802
1204.5	282.18	434.452	360.818	360.818	360.818	362.096	360.818	361.672	360.818	360.818	362.951
1204.6	282.08	416.336	360.655	360.655	360.655	361.418	360.655	361.083	360.655	360.655	361.845
1204.7	281.98	435.764	360.436	360.436	360.436	360.883	360.436	360.642	360.436	360.436	361.09
1204.8	281.88	408.324	360.295	360.295	360.295	360.553	360.295	360.392	360.295	360.295	360.65
1204.9	281.78	426.964	360.1	360.1	360.1	360.248	360.1	360.144	360.1	360.1	360.291
1205	281.68	390.794	360.01	360.01	360.01	360.093	360.01	360.03	360.01	360.01	360.112
1205.1	281.58	384.436	359.939	359.939	359.939	359.985	359.939	359.947	359.939	359.939	359.993
1205.2	281.48	406.98	359.801	359.801	359.801	359.826	359.801	359.805	359.801	359.801	359.829
1205.3	281.38	394.55	359.7	359.7	359.7	359.713	359.7	359.701	359.7	359.7	359.714
1205.4	281.28	389.071	359.614	359.614	359.614	359.621	359.614	359.614	359.614	359.614	359.621
1205.5	281.18	391.026	359.522	359.522	359.522	359.525	359.522	359.522	359.522	359.522	359.526
1205.6	281.08	376.188	359.473	359.473	359.473	359.475	359.473	359.473	359.473	359.473	359.475
1205.7	280.98	383.074	359.404	359.404	359.404	359.405	359.404	359.404	359.404	359.404	359.405
1205.8	280.88	353.607	359.387	359.387	359.387	359.387	359.387	359.387	359.387	359.387	359.387
1205.9	280.78	341.479	341.479	341.479	341.479	341.479	341.479	341.479	341.479	341.479	341.479
1206	280.68	359.186	359.186	359.186	359.186	359.186	359.186	359.186	359.186	359.186	359.186
1206.1	280.58	339.654	339.654	339.654	339.654	339.654	339.654	339.654	339.654	339.654	339.654
1206.2	280.48	346.427	346.427	346.427	346.427	346.427	346.427	346.427	346.427	346.427	346.427
1206.3	280.38	336.2	336.2	336.2	336.2	336.2	336.2	336.2	336.2	336.2	336.2
1206.4	280.28	334.904	334.904	334.904	334.904	334.904	334.904	334.904	334.904	334.904	334.904
1206.5	280.18	357.44	357.44	357.44	357.44	357.44	357.44	357.44	357.44	357.44	357.44
1206.6	280.08	346.1	346.1	346.1	346.1	346.1	346.1	346.1	346.1	346.1	346.1
1206.7	279.98	341.786	341.786	341.786	341.786	341.786	341.786	341.786	341.786	341.786	341.786
1206.8	279.88	321.56	321.56	321.56	321.56	321.56	321.56	321.56	321.56	321.56	321.56
1206.9	279.78	331.224	331.224	331.224	331.224	331.224	331.224	331.224	331.224	331.224	331.224
1207	279.68	328.14	328.14	328.14	328.14	328.14	328.14	328.14	328.14	328.14	328.14
1207.1	279.58	328.314	328.314	328.314	328.314	328.314	328.314	328.314	328.314	328.314	328.314
1207.2	279.48	324.299	324.299	324.299	324.299	324.299	324.299	324.299	324.299	324.299	324.299
1207.3	279.38	334.663	334.663	334.663	334.663	334.663	334.663	334.663	334.663	334.663	334.663
1207.4	279.28	319.278	319.278	319.278	319.278	319.278	319.278	319.278	319.278	319.278	319.278
1207.5	279.18	320.631	320.631	320.631	320.631	320.631	320.631	320.631	320.631	320.631	320.631
1207.6	279.08	330.944	330.944	330.944	330.944	330.944	330.944	330.944	330.944	330.944	330.944